36.594199999999965
37.223499999999966
37.850599999999964
38.47769999999997
39.10689999999997
39.73379999999997
40.36289999999997
40.98979999999997
41.616699999999966
42.24559999999997
42.87239999999997
43.50119999999997
44.12789999999997
44.75459999999997
45.38329999999997
46.009899999999966
46.636399999999966
47.264999999999965
47.89139999999997
48.517799999999966
49.14629999999997
49.77259999999997
50.39889999999997
51.025099999999966
51.65339999999997
52.27949999999997
52.905599999999964
53.533799999999964
54.15979999999997
54.785799999999966
55.41169999999997
56.039799999999964
56.66559999999997
57.29139999999997
57.917199999999966
58.54289999999997
59.17069999999997
59.79639999999997
60.421899999999965
61.047499999999964
61.672999999999966
62.29849999999997
62.925999999999966
63.551399999999965
64.17679999999997
64.80209999999997
65.42729999999997
66.05249999999997
66.67769999999997
67.30279999999996
67.93009999999997
68.55509999999997
69.18009999999997
69.80509999999997
70.42999999999996
71.05489999999996
71.67979999999997
72.30449999999996
72.92929999999997
73.55399999999997
74.17869999999996
74.80329999999996
75.42789999999997
76.05249999999997
76.67699999999996
77.30139999999997
77.92589999999997
78.55029999999996
79.17459999999997
79.79889999999996
80.42309999999996
81.04739999999997
81.67149999999997
82.29569999999997
82.91979999999997
83.54379999999996
84.16779999999997
84.79179999999997
85.41359999999997
86.03749999999997
86.66129999999997
87.28509999999997
87.90889999999997
88.53259999999997
89.15619999999997
89.77989999999997
90.40129999999996
91.02489999999997
91.64839999999997
92.27189999999997
92.89529999999996
93.51869999999997
94.13989999999997
94.76319999999997
95.38639999999997
96.00969999999997
96.63069999999996
97.25379999999997
97.87689999999996
98.49999999999997
99.12089999999996
99.74399999999997
100.36699999999996
100.98999999999997
101.60999999999997
102.23299999999996
102.85599999999997
103.47699999999996
104.09899999999996
104.72199999999997
105.34399999999997
105.96499999999996
106.58699999999996
107.20799999999997
107.82999999999997
108.45299999999996
109.07299999999996
109.69499999999996
110.31699999999996
110.93699999999997
111.55999999999997
112.17999999999996
112.80199999999996
113.42399999999996
114.04399999999997
114.66599999999997
115.28499999999997
115.90699999999997
116.52699999999997
117.14899999999997
117.76799999999997
118.38999999999997
119.01199999999997
119.63099999999997
120.25299999999997
120.87199999999997
121.49399999999997
122.11299999999997
122.73299999999996
123.35399999999997
123.97299999999997
124.59499999999997
125.21399999999997
125.83499999999997
126.45399999999997
127.07499999999996
127.69399999999996
128.31299999999996
128.93399999999997
129.55299999999997
130.17399999999998
130.79299999999998
131.41099999999997
132.03199999999995
132.65099999999995
133.26899999999998
133.88999999999996
134.50899999999996
135.12699999999998
135.74799999999996
136.36599999999996
136.98499999999996
137.60499999999996
138.22299999999996
138.84199999999996
139.45999999999998
140.07999999999996
140.69799999999998
141.31599999999997
141.93599999999998
142.55399999999997
143.17199999999997
143.78999999999996
144.40799999999996
145.02799999999996
145.64599999999996
146.26399999999995
146.88099999999997
147.49899999999997
148.11899999999997
148.73599999999996
149.35399999999996
149.97099999999998
150.58899999999997
151.20599999999996
151.82599999999996
152.44299999999996
153.05999999999997
153.67799999999997
154.29499999999996
154.91199999999998
155.52899999999997
156.14599999999996
156.76299999999998
157.37999999999997
157.99699999999996
158.61599999999996
159.23299999999998
159.84999999999997
160.46699999999996
161.08399999999997
161.69999999999996
162.31699999999998
162.93399999999997
163.54999999999995
164.16699999999997
164.78299999999996
165.39999999999998
166.01599999999996
166.63299999999998
167.24899999999997
167.86299999999997
168.47999999999996
169.09599999999998
169.71199999999996
170.32799999999997
170.94399999999996
171.55999999999997
172.17599999999996
172.79199999999997
173.40799999999996
174.02399999999997
174.63799999999998
175.25399999999996
175.86999999999998
176.48499999999996
177.10099999999997
177.71699999999996
178.32999999999996
178.94599999999997
179.56099999999998
180.17699999999996
180.79199999999997
181.40599999999998
182.02099999999996
182.63599999999997
183.25199999999998
183.86499999999998
184.47999999999996
185.09499999999997
185.70999999999998
186.32299999999998
186.93799999999996
187.55299999999997
188.16799999999998
188.78099999999998
189.39599999999996
190.01099999999997
190.62399999999997
191.23899999999998
191.85299999999998
192.46599999999998
193.07999999999996
193.69499999999996
194.30799999999996
194.92199999999997
195.53399999999996
196.14899999999997
196.76299999999998
197.37599999999998
197.98999999999998
198.60199999999998
199.21599999999998
199.82799999999997
200.44299999999996
201.05699999999996
201.66899999999995
202.28299999999996
202.89499999999995
203.50899999999996
204.11999999999998
204.73399999999998
205.34599999999998
205.95999999999998
206.57099999999997
207.18499999999997
207.79699999999997
208.40999999999997
209.02199999999996
209.63299999999998
210.24699999999996
210.85799999999998
211.47199999999998
212.08299999999997
212.69599999999997
213.30799999999996
213.91899999999995
214.53199999999995
215.14299999999997
215.75599999999997
216.36699999999996
216.97799999999998
217.59099999999998
218.20199999999997
218.81299999999996
219.42599999999996
220.03699999999998
220.64699999999996
221.25999999999996
221.87099999999998
222.48099999999997
223.09199999999996
223.70499999999996
224.31499999999997
224.92499999999995
225.53599999999997
226.14799999999997
226.75899999999996
227.36899999999997
227.97899999999996
228.59199999999996
229.20199999999997
229.81199999999995
230.42199999999997
231.03199999999995
231.64399999999998
232.25399999999996
232.86399999999998
233.47399999999996
234.08399999999997
234.69299999999996
235.30299999999997
235.91499999999996
236.52499999999998
237.13399999999996
237.74399999999997
238.35399999999996
238.96299999999997
239.57299999999998
240.18199999999996
240.79099999999997
241.40099999999995
242.00999999999996
242.61899999999997
243.23099999999997
243.83999999999997
244.44899999999996
245.05799999999996
245.66699999999997
246.27599999999995
246.88499999999996
247.49399999999997
248.10299999999998
248.70999999999998
249.31899999999996
249.92799999999997
250.53599999999997
251.14499999999995
251.75399999999996
252.36199999999997
252.97099999999998
253.57999999999996
254.18799999999996
254.79699999999997
255.40499999999997
256.013
256.61999999999995
257.22799999999995
257.83599999999996
258.445
259.05299999999994
259.66099999999994
260.26699999999994
260.87499999999994
261.48299999999995
262.09099999999995
262.69899999999996
263.30499999999995
263.91299999999995
264.52099999999996
265.128
265.736
266.342
266.94899999999996
267.55699999999996
268.16299999999995
268.77
269.378
269.98499999999996
270.59099999999995
271.198
271.80499999999995
272.41099999999994
273.018
273.62499999999994
274.22999999999996
274.837
275.44399999999996
276.049
276.657
277.26099999999997
277.868
278.47499999999997
279.08
279.68699999999995
280.292
280.89799999999997
281.505
282.10999999999996
282.71599999999995
283.32099999999997
283.92799999999994
284.532
285.138
285.743
286.349
286.95399999999995
287.55999999999995
288.164
288.77
289.37399999999997
289.981
290.585
291.191
291.79499999999996
292.39899999999994
293.005
293.60799999999995
294.21399999999994
294.818
295.42199999999997
296.02799999999996
296.631
297.23499999999996
297.84099999999995
298.44399999999996
299.04999999999995
299.65299999999996
300.25699999999995
300.85999999999996
301.465
302.06899999999996
302.67199999999997
303.277
303.88
304.484
305.087
305.69199999999995
306.29499999999996
306.89799999999997
307.501
308.106
308.70899999999995
309.311
309.914
310.51899999999995
311.12199999999996
311.724
312.32699999999994
312.92999999999995
313.532
314.13699999999994
314.739
315.342
315.94399999999996
316.546
317.14899999999994
317.751
318.35299999999995
318.955
319.55999999999995
320.162
320.76399999999995
321.366
321.96799999999996
322.57
323.17199999999997
323.77399999999994
324.37499999999994
324.977
325.57899999999995
326.181
326.782
327.38399999999996
327.986
328.587
329.18899999999996
329.78999999999996
330.39199999999994
330.993
331.592
332.19399999999996
332.79499999999996
333.39599999999996
333.998
334.599
335.2
335.801
336.402
337.001
337.602
338.203
338.804
339.405
340.005
340.604
341.205
341.806
342.40599999999995
343.00699999999995
343.60499999999996
344.20599999999996
344.806
345.407
346.005
346.606
347.20599999999996
347.806
348.405
349.005
349.60499999999996
350.203
350.80299999999994
351.40299999999996
352.001
352.60099999999994
353.20099999999996
353.799
354.39899999999994
354.99699999999996
355.597
356.19599999999997
356.794
357.39399999999995
357.991
358.59099999999995
359.18999999999994
359.78799999999995
360.38699999999994
360.98499999999996
361.58399999999995
362.181
362.78099999999995
363.378
363.977
364.57399999999996
365.174
365.77099999999996
366.36999999999995
366.967
367.566
368.16299999999995
368.76199999999994
369.359
369.957
370.554
371.15099999999995
371.74999999999994
372.34599999999995
372.945
373.542
374.138
374.73699999999997
375.33299999999997
375.92999999999995
376.52799999999996
377.12399999999997
377.72099999999995
378.31899999999996
378.91499999999996
379.51099999999997
380.10999999999996
380.70599999999996
381.30199999999996
381.89799999999997
382.496
383.092
383.688
384.284
384.881
385.477
386.073
386.669
387.26599999999996
387.86199999999997
388.45799999999997
389.05299999999994
389.64899999999994
390.24399999999997
390.842
391.43699999999995
392.03299999999996
392.628
393.22299999999996
393.818
394.414
395.00899999999996
395.604
396.20099999999996
396.796
397.39099999999996
397.986
398.58099999999996
399.176
399.77099999999996
400.366
400.96099999999996
401.55499999999995
402.15
402.74499999999995
403.33899999999994
403.93399999999997
404.52899999999994
405.123
405.71799999999996
406.31199999999995
406.907
407.501
408.09499999999997
408.68699999999995
409.282
409.876
410.46999999999997
411.06399999999996
411.65799999999996
412.25199999999995
412.84599999999995
413.43999999999994
414.032
414.626
415.21999999999997
415.81399999999996
416.40799999999996
416.99899999999997
417.59299999999996
418.18699999999995
418.78
419.37399999999997
419.96599999999995
420.55899999999997
421.15299999999996
421.746
422.337
422.931
423.52399999999994
424.11499999999995
424.70899999999995
425.30199999999996
425.895
426.486
427.07899999999995
427.67199999999997
428.263
428.856
429.44899999999996
430.03999999999996
430.633
431.224
431.81699999999995
432.409
432.99999999999994
433.59299999999996
434.183
434.77599999999995
435.366
435.95899999999995
436.551
437.14199999999994
437.734
438.325
438.917
439.50699999999995
440.099
440.68999999999994
441.282
441.87199999999996
442.46399999999994
443.054
443.64399999999995
444.236
444.82599999999996
445.41799999999995
446.008
446.599
447.18899999999996
447.77899999999994
448.371
448.96
449.54999999999995
450.14199999999994
450.731
451.32099999999997
451.912
452.501
453.09099999999995
453.68199999999996
454.272
454.861
455.45199999999994
456.04099999999994
456.63
457.21999999999997
457.811
458.4
458.989
459.578
460.169
460.75699999999995
461.34599999999995
461.93499999999995
462.52399999999994
463.11499999999995
463.703
464.292
464.881
465.469
466.058
466.64799999999997
467.23699999999997
467.825
468.414
469.00199999999995
469.59
470.179
470.76699999999994
471.35499999999996
471.943
472.53099999999995
473.11899999999997
473.707
474.29699999999997
474.885
475.47299999999996
476.061
476.64899999999994
477.23699999999997
477.825
478.41099999999994
478.998
479.58599999999996
480.174
480.76099999999997
481.349
481.936
482.52399999999994
483.111
483.69899999999996
484.28599999999994
484.873
485.45899999999995
486.046
486.633
487.21999999999997
487.80699999999996
488.39399999999995
488.981
489.566
490.15299999999996
490.73999999999995
491.32699999999994
491.914
492.49899999999997
493.08599999999996
493.67299999999994
494.25899999999996
494.844
495.431
496.01699999999994
496.604
497.188
497.775
498.361
498.94599999999997
499.532
500.118
500.703
501.289
501.87499999999994
502.45899999999995
503.046
503.63
504.21599999999995
504.80199999999996
505.38599999999997
505.972
506.556
507.14199999999994
507.727
508.311
508.897
509.481
510.06699999999995
510.65
511.236
511.81899999999996
512.405
512.9879999999999
513.574
514.1569999999999
514.7429999999999
515.326
515.911
516.495
517.078
517.663
518.246
518.831
519.415
520.0
520.583
521.1659999999999
521.751
522.334
522.9159999999999
523.501
524.084
524.6669999999999
525.251
525.834
526.4169999999999
527.001
527.584
528.1669999999999
528.749
529.334
529.9159999999999
530.4979999999999
531.081
531.665
532.247
532.829
533.4119999999999
533.9939999999999
534.578
535.16
535.742
536.324
536.906
537.4879999999999
538.072
538.654
539.236
539.817
540.399
540.981
541.562
542.144
542.726
543.307
543.889
544.4699999999999
545.052
545.635
546.217
546.798
547.379
547.9599999999999
548.5419999999999
549.1229999999999
549.702
550.283
550.8639999999999
551.4449999999999
552.026
552.607
553.188
553.769
554.35
554.9309999999999
555.511
556.092
556.6709999999999
557.251
557.832
558.413
558.9929999999999
559.574
560.154
560.733
561.313
561.894
562.4739999999999
563.052
563.632
564.213
564.793
565.3729999999999
565.951
566.531
567.111
567.689
568.269
568.8489999999999
569.427
570.007
570.587
571.164
571.7439999999999
572.324
572.901
573.481
574.0609999999999
574.6379999999999
575.218
575.795
576.375
576.954
577.531
578.111
578.688
579.2669999999999
579.8449999999999
580.424
581.001
581.5799999999999
582.1569999999999
582.736
583.313
583.8919999999999
584.4689999999999
585.048
585.625
586.204
586.78
587.3589999999999
587.9359999999999
588.512
589.091
589.668
590.246
590.823
591.399
591.978
592.554
593.13
593.709
594.285
594.861
595.4399999999999
596.016
596.592
597.17
597.746
598.322
598.8979999999999
599.476
600.052
600.6279999999999
601.204
601.7819999999999
602.357
602.933
603.509
604.0849999999999
604.66
605.2379999999999
605.813
606.389
606.9639999999999
607.54
608.115
608.6909999999999
609.2679999999999
609.843
610.419
610.9939999999999
611.569
612.144
612.7189999999999
613.294
613.8689999999999
614.444
615.019
615.5939999999999
616.169
616.7439999999999
617.319
617.894
618.4689999999999
619.043
619.6179999999999
620.193
620.7669999999999
621.342
621.9159999999999
622.491
623.0649999999999
623.6379999999999
624.212
624.7869999999999
625.361
625.935
626.509
627.084
627.656
628.23
628.804
629.3779999999999
629.952
630.526
631.098
631.6719999999999
632.246
632.8199999999999
633.3919999999999
633.9649999999999
634.539
635.1129999999999
635.684
636.2579999999999
636.832
637.403
637.977
638.55
639.122
639.6949999999999
640.269
640.8399999999999
641.413
641.986
642.558
643.131
643.702
644.275
644.848
645.419
645.992
646.563
647.136
647.707
648.28
648.851
649.424
649.9939999999999
